0.036025 0.036025 0.031025 0.021025 0.031025 0.031025 0.046025 0.051025 0.036025 0.016025 0.031025 0.031025 0.046025 0.036025 0.021025 0.011025 0.006025 0.021025 0.026025 0.021025 0.026025 0.016025 0.016025 0.031025 0.026025 0.031025 0.021025 0.011025 0.016025 0.031025 0.031025 0.026025 0.021025 0.006025 0.016025 0.016025 0.031025 0.031025 0.016025 0.016025 0.021025 0.036025 0.051025 0.061025 0.061025 0.056025 0.076025 0.096025 0.106025 0.111025 0.106025 0.091025 0.121025 0.126025 0.141025 0.146025 0.141025 0.131025 0.136025 0.141025 0.146025 0.136025 0.136025 0.121025 0.131025 0.141025 0.146025 0.151025 0.146025 0.151025 0.176025 0.156025 0.131025 0.101025 0.076025 0.061025 0.061025 0.061025 0.056025 0.036025 0.021025 0.016025 0.016025 0.026025 0.026025 0.026025 0.011025 -0.003975 -0.003975 0.006025 0.006025 -0.003975 -0.003975 -0.013975 -0.008975 0.001025 0.001025 0.006025 -0.008975 -0.013975 -0.003975 0.011025 0.011025 0.011025 -0.003975 -0.043975 -0.058975 -0.063975 -0.078975 -0.078975 -0.078975 -0.088975 -0.083975 -0.098975 -0.123975 -0.173975 -0.193975 -0.173975 -0.073975 0.056025 0.191025 0.366025 0.586025 0.851025 1.096025 1.261025 1.281025 1.126025 0.781025 0.371025 0.046025 -0.103975 -0.113975 -0.088975 -0.048975 -0.028975 -0.023975 -0.028975 -0.013975 -0.018975 -0.018975 -0.033975 -0.033975 -0.033975 -0.033975 -0.023975 -0.033975 -0.048975 -0.038975 -0.033975 -0.028975 -0.028975 -0.038975 -0.048975 -0.038975 -0.023975 -0.028975 -0.033975 -0.038975 -0.043975 -0.043975 -0.028975 -0.023975 -0.033975 -0.043975 -0.038975 -0.053975 -0.038975 -0.023975 -0.028975 -0.028975 -0.038975 -0.043975 -0.028975 -0.033975 -0.023975 -0.043975 -0.043975 -0.033975 -0.038975 -0.028975 -0.028975 -0.033975 -0.048975 -0.048975 -0.028975 -0.023975 -0.023975 -0.023975 -0.033975 -0.043975 -0.033975 -0.023975 -0.018975 -0.038975 -0.038975 -0.033975 -0.018975 -0.028975 -0.033975 -0.028975 -0.048975 -0.048975 -0.048975 -0.018975 -0.023975 -0.018975 -0.038975 -0.038975 -0.028975 -0.023975 -0.033975 -0.038975 -0.038975 -0.048975 -0.033975 -0.033975 -0.028975 -0.013975 -0.038975 -0.033975 -0.038975 -0.018975 -0.018975 -0.033975 -0.028975 -0.023975 -0.003975 0.001025 0.011025 0.011025 0.016025 0.026025 0.046025 0.056025 0.061025 0.056025 0.061025 0.071025 0.091025 0.096025 0.086025 0.086025 0.086025 0.076025 0.081025 0.086025 0.091025 0.081025 0.081025 0.081025 0.076025 0.091025 0.091025 0.086025 0.076025 0.091025 0.096025 0.101025 0.101025 0.096025 0.086025 0.096025 0.101025 0.101025 0.091025 0.081025 0.056025 0.071025 0.076025 0.071025 0.066025 0.056025 0.051025 0.061025 0.071025 0.091025 0.086025 0.086025 0.086025 0.076025 0.081025 0.096025 0.096025 0.081025 0.066025 0.061025 0.076025 0.076025 0.076025 0.076025 0.051025 0.051025 0.056025 0.061025 0.061025 0.051025 0.031025 0.036025 0.056025 0.076025 0.081025 0.076025 0.061025 0.061025 0.071025 0.101025 0.101025 0.091025 0.101025 0.126025 0.141025 0.156025 0.161025 0.161025 0.151025 0.156025 0.181025 0.191025 0.186025 0.181025 0.156025 0.151025 0.146025 0.146025 0.171025 0.176025 0.181025 0.176025 0.181025 0.191025 0.191025 0.176025 0.146025 0.121025 0.116025 0.126025 0.126025 0.111025 0.081025 0.071025 0.061025 0.061025 0.056025 0.046025 0.036025 0.046025 0.051025 0.051025 0.056025 0.046025 0.036025 0.026025 0.026025 0.026025 0.016025 0.006025 0.006025 0.031025 0.041025 0.041025 0.021025 0.001025 0.001025 0.021025 0.036025 0.036025 0.001025 -0.038975 -0.093975 -0.103975 -0.128975 -0.163975 -0.178975 -0.168975 -0.103975 -0.023975 0.056025 0.126025 0.236025 0.406025 0.651025 0.941025 1.161025 1.256025 1.226025 1.016025 0.651025 0.276025 0.016025 -0.088975 -0.103975 -0.068975 -0.038975 -0.013975 -0.028975 -0.038975 -0.043975 -0.043975 -0.043975 -0.023975 -0.013975 0.011025 0.011025 -0.008975 -0.028975 -0.038975 -0.023975 -0.008975 0.006025 0.011025 -0.003975 -0.013975 -0.023975 -0.028975 -0.033975 -0.043975 -0.053975 -0.048975 -0.023975 -0.018975 -0.003975 -0.018975 -0.033975 -0.033975 -0.028975 -0.008975 -0.008975 -0.018975 -0.023975 -0.028975 -0.018975 -0.003975 0.006025 -0.003975 -0.028975 -0.033975 -0.033975 -0.033975 -0.028975 -0.038975 -0.038975 -0.028975 -0.013975 0.006025 -0.003975 -0.023975 -0.048975 -0.038975 -0.018975 -0.003975 -0.018975 -0.033975 -0.038975 -0.023975 -0.023975 -0.003975 -0.008975 -0.023975 -0.023975 -0.013975 -0.008975 -0.003975 -0.013975 -0.003975 -0.028975 -0.043975 -0.038975 -0.043975 -0.048975 -0.043975 -0.058975 -0.058975 -0.053975 -0.038975 -0.068975 -0.068975 -0.083975 -0.078975 -0.068975 -0.043975 -0.053975 -0.073975 -0.108975 -0.093975 -0.073975 -0.048975 -0.033975 -0.038975 -0.028975 -0.013975 0.001025 0.026025 0.041025 0.061025 0.051025 0.061025 0.041025 0.056025 0.076025 0.066025 0.051025 0.056025 0.076025 0.096025 0.111025 0.106025 0.081025 0.076025 0.076025 0.091025 0.106025 0.111025 0.101025 0.086025 0.081025 0.096025 0.106025 0.091025 0.086025 0.076025 0.081025 0.081025 0.091025 0.096025 0.071025 0.076025 0.081025 0.086025 0.081025 0.066025 0.061025 0.061025 0.071025 0.081025 0.076025 0.071025 0.061025 0.071025 0.076025 0.081025 0.066025 0.051025 0.051025 0.056025 0.051025 0.061025 0.041025 0.026025 0.021025 0.026025 0.026025 0.041025 0.031025 0.031025 0.011025 0.016025 0.021025 0.036025 0.041025 0.041025 0.036025 0.041025 0.041025 0.056025 0.071025 0.061025 0.056025 0.061025 0.066025 0.081025 0.101025 0.101025 0.091025 0.101025 0.106025 0.126025 0.136025 0.136025 0.126025 0.136025 0.156025 0.156025 0.176025 0.161025 0.126025 0.131025 0.141025 0.151025 0.156025 0.146025 0.141025 0.136025 0.141025 0.161025 0.166025 0.171025 0.151025 0.131025 0.111025 0.091025 0.081025 0.066025 0.021025 0.011025 0.011025 0.021025 0.021025 0.021025 0.011025 0.016025 0.021025 0.021025 0.026025 0.016025 0.006025 -0.003975 0.001025 0.001025 0.006025 0.001025 -0.013975 -0.018975 -0.008975 0.001025 0.006025 -0.003975 -0.013975 -0.013975 -0.003975 -0.023975 -0.048975 -0.083975 -0.118975 -0.128975 -0.158975 -0.168975 -0.133975 -0.033975 0.096025 0.261025 0.446025 0.686025 0.951025 1.146025 1.241025 1.236025 1.071025 0.736025 0.331025 0.041025 -0.118975 -0.148975 -0.143975 -0.093975 -0.073975 -0.048975 -0.058975 -0.058975 -0.053975 -0.038975 -0.043975 -0.048975 -0.073975 -0.063975 -0.068975 -0.048975 -0.053975 -0.058975 -0.063975 -0.068975 -0.063975 -0.053975 -0.053975 -0.063975 -0.078975 -0.088975 -0.068975 -0.053975 -0.053975 -0.068975 -0.073975 -0.073975 -0.053975 -0.043975 -0.053975 -0.053975 -0.068975 -0.073975 -0.068975 -0.058975 -0.053975 -0.068975 -0.083975 -0.083975 -0.063975 -0.058975 -0.063975 -0.073975 -0.083975 -0.073975 -0.058975 -0.058975 -0.063975 -0.063975 -0.078975 -0.078975 -0.058975 -0.048975 -0.053975 -0.068975 -0.073975 -0.063975 -0.053975 -0.058975 -0.053975 -0.073975 -0.073975 -0.073975 -0.053975 -0.053975 -0.063975 -0.068975 -0.073975 -0.083975 -0.073975 -0.058975 -0.063975 -0.073975 -0.088975 -0.088975 -0.078975 -0.078975 -0.068975 -0.083975 -0.088975 -0.098975 -0.083975 -0.078975 -0.078975 -0.088975 -0.098975 -0.103975 -0.083975 -0.078975 -0.078975 -0.093975 -0.078975 -0.078975 -0.053975 -0.038975 -0.033975 -0.033975 -0.023975 -0.013975 -0.003975 0.021025 0.036025 0.021025 0.026025 0.031025 0.056025 0.066025 0.066025 0.066025 0.051025 0.056025 0.056025 0.071025 0.071025 0.066025 0.046025 0.046025 0.066025 0.071025 0.056025 0.056025 0.061025 0.066025 0.066025 0.071025 0.066025 0.066025 0.066025 0.056025 0.071025 0.081025 0.066025 0.071025 0.056025 0.051025 0.061025 0.066025 0.051025 0.051025 0.041025 0.036025 0.051025 0.056025 0.041025 0.036025 0.026025 0.041025 0.031025 0.051025 0.031025 0.021025 0.026025 0.021025 0.036025 0.051025 0.031025 0.031025 0.016025 0.011025 0.021025 0.041025 0.036025 0.036025 0.036025 0.031025 0.051025 0.051025 0.056025 0.061025 0.056025 0.061025 0.091025 0.106025 0.101025 0.106025 0.111025 0.106025 0.121025 0.131025 0.131025 0.131025 0.126025 0.121025 0.126025 0.126025 0.126025 0.126025 0.121025 0.131025 0.151025 0.181025 0.181025 0.146025 0.101025 0.071025 0.076025 0.071025 0.051025 0.016025 -0.013975 -0.003975 -0.008975 0.006025 0.006025 0.001025 0.001025 -0.013975 -0.008975 -0.008975 0.001025 -0.008975 -0.018975 -0.028975 -0.013975 -0.003975 -0.013975 -0.013975 -0.023975 -0.023975 -0.008975 -0.008975 -0.008975 -0.028975 -0.043975 -0.058975 -0.068975 -0.103975 -0.128975 -0.138975 -0.183975 -0.223975 -0.203975 -0.093975 0.071025 0.221025 0.411025 0.676025 0.966025 1.181025 1.281025 1.216025 0.956025 0.516025 0.101025 -0.128975 -0.183975 -0.128975 -0.083975 -0.053975 -0.053975 -0.048975 -0.068975 -0.063975 -0.068975 -0.073975 -0.058975 -0.043975 -0.048975 -0.058975 -0.048975 -0.058975 -0.053975 -0.053975 -0.048975 -0.068975 -0.063975 -0.078975 -0.073975 -0.063975 -0.058975 -0.068975 -0.073975 -0.083975 -0.073975 -0.073975 -0.068975 -0.078975 -0.083975 -0.088975 -0.068975 -0.063975 -0.068975 -0.078975 -0.083975 -0.088975 -0.083975 -0.073975 -0.078975 -0.078975 -0.083975 -0.073975 -0.068975 -0.068975 -0.063975 -0.073975 -0.083975 -0.088975 -0.068975 -0.053975 -0.068975 -0.083975 -0.078975 -0.083975 -0.078975 -0.073975 -0.078975 -0.078975 -0.083975 -0.088975 -0.068975 -0.068975 -0.063975 -0.093975 -0.088975 -0.088975 -0.063975 -0.058975 -0.058975 -0.073975 -0.078975 -0.083975 -0.073975 -0.083975 -0.088975 -0.098975 -0.098975 -0.103975 -0.083975 -0.068975 -0.083975 -0.078975 -0.093975 -0.078975 -0.068975 -0.063975 -0.073975 -0.068975 -0.053975 -0.043975 -0.023975 -0.008975 -0.003975 0.001025 0.006025 0.001025 0.021025 0.026025 0.031025 0.026025 0.021025 0.031025 0.036025 0.036025 0.046025 0.026025 0.031025 0.021025 0.021025 0.031025 0.026025 0.021025 0.016025 0.011025 0.026025 0.036025 0.036025 0.031025 0.036025 0.026025 0.031025 0.036025 0.031025 0.031025 0.016025 0.021025 0.046025 0.046025 0.041025 0.036025 0.026025 0.016025 0.016025 0.021025 0.021025 0.021025 0.011025 0.011025 0.011025 0.001025 0.006025 -0.008975 -0.013975 -0.013975 -0.003975 0.011025 0.011025 0.001025 -0.013975 -0.028975 -0.013975 0.006025 0.006025 0.001025 0.001025 -0.018975 -0.008975 -0.003975 0.006025 0.011025 -0.003975 0.001025 0.011025 0.016025 0.021025 0.026025 0.036025 0.046025 0.051025 0.056025 0.041025 0.046025 0.046025 0.051025 0.066025 0.066025 0.081025 0.096025 0.096025 0.096025 0.106025 0.096025 0.081025 0.066025 0.066025 0.076025 0.081025 0.091025 0.096025 0.101025 0.106025 0.081025 0.066025 0.051025 0.036025 0.026025 0.011025 -0.013975 -0.033975 -0.048975 -0.053975 -0.068975 -0.078975 -0.068975 -0.053975 -0.063975 -0.063975 -0.058975 -0.073975 -0.078975 -0.063975 -0.058975 -0.073975 -0.068975 -0.093975 -0.088975 -0.068975 -0.073975 -0.068975 -0.078975 -0.093975 -0.098975 -0.123975 -0.143975 -0.183975 -0.193975 -0.238975 -0.283975 -0.328975 -0.308975 -0.273975 -0.218975 -0.153975 -0.073975 -0.003975 0.081025 0.201025 0.406025 0.661025 0.916025 1.091025 1.181025 1.136025 0.836025 0.381025 0.001025 -0.203975 -0.248975 -0.213975 -0.158975 -0.128975 -0.128975 -0.128975 -0.108975 -0.118975 -0.133975 -0.133975 -0.128975 -0.133975 -0.118975 -0.113975 -0.128975 -0.143975 -0.148975 -0.148975 -0.143975 -0.138975 -0.143975 -0.158975 -0.168975 -0.158975 -0.148975 -0.153975 -0.168975 -0.158975 -0.178975 -0.163975 -0.143975 -0.158975 -0.163975 -0.163975 -0.178975 -0.153975 -0.133975 -0.128975 -0.148975 -0.173975 -0.178975 -0.173975 -0.178975 -0.178975 -0.198975 -0.188975 -0.188975 -0.163975 -0.153975 -0.158975 -0.173975 -0.188975 -0.198975 -0.193975 -0.183975 -0.163975 -0.173975 -0.173975 -0.168975 -0.153975 -0.148975 -0.148975 -0.153975 -0.168975 -0.173975 -0.168975 -0.173975 -0.173975 -0.173975 -0.193975 -0.188975 -0.183975 -0.168975 -0.163975 -0.183975 -0.213975 -0.218975 -0.223975 -0.223975 -0.238975 -0.253975 -0.248975 -0.248975 -0.223975 -0.203975 -0.193975 -0.203975 -0.218975 -0.218975 -0.208975 -0.213975 -0.193975 -0.183975 -0.183975 -0.198975 -0.183975 -0.183975 -0.163975 -0.158975 -0.148975 -0.133975 -0.108975 -0.088975 -0.083975 -0.088975 -0.113975 -0.113975 -0.098975 -0.058975 -0.043975 -0.048975 -0.068975 -0.068975 -0.053975 -0.033975 -0.028975 -0.033975 -0.048975 -0.063975 -0.053975 -0.043975 -0.038975 -0.048975 -0.053975 -0.063975 -0.053975 -0.058975 -0.063975 -0.068975 -0.078975 -0.083975 -0.068975 -0.053975 -0.043975 -0.043975 -0.073975 -0.088975 -0.088975 -0.083975 -0.068975 -0.058975 -0.068975 -0.083975 -0.068975 -0.058975 -0.053975 -0.078975 -0.088975 -0.088975 -0.073975 -0.078975 -0.083975 -0.093975 -0.103975 -0.093975 -0.083975 -0.078975 -0.063975 -0.078975 -0.098975 -0.103975 -0.098975 -0.083975 -0.083975 -0.098975 -0.108975 -0.108975 -0.078975 -0.048975 -0.048975 -0.078975 -0.068975 -0.048975 -0.028975 -0.003975 0.006025 0.001025 -0.018975 -0.023975 -0.013975 0.006025 0.011025 0.021025 0.021025 0.021025 0.031025 0.026025 0.026025 0.021025 0.016025 0.011025 0.006025 0.026025 0.026025 0.026025 0.026025 0.021025 0.031025 0.056025 0.076025 0.071025 0.041025 -0.008975 -0.033975 -0.018975 -0.038975 -0.058975 -0.073975 -0.083975 -0.088975 -0.083975 -0.093975 -0.103975 -0.093975 -0.103975 -0.103975 -0.093975 -0.103975 -0.108975 -0.113975 -0.103975 -0.103975 -0.088975 -0.093975 -0.103975 -0.113975 -0.123975 -0.113975 -0.108975 -0.098975 -0.103975 -0.113975 -0.108975 -0.118975 -0.133975 -0.178975 -0.203975 -0.223975 -0.268975 -0.283975 -0.278975 -0.203975 -0.058975 0.081025 0.261025 0.491025 0.756025 0.976025 1.116025 1.176025 1.081025 0.801025 0.386025 0.021025 -0.193975 -0.243975 -0.233975 -0.178975 -0.143975 -0.133975 -0.133975 -0.143975 -0.138975 -0.133975 -0.138975 -0.138975 -0.148975 -0.138975 -0.158975 -0.148975 -0.138975 -0.128975 -0.133975 -0.158975 -0.148975 -0.153975 -0.138975 -0.143975 -0.138975 -0.153975 -0.138975 -0.133975 -0.118975 -0.133975 -0.128975 -0.148975 -0.143975 -0.138975 -0.138975 -0.133975 -0.153975 -0.153975 -0.153975 -0.158975 -0.143975 -0.143975 -0.148975 -0.163975 -0.168975 -0.163975 -0.148975 -0.153975 -0.153975 -0.158975 -0.168975 -0.158975 -0.138975 -0.148975 -0.148975 -0.163975 -0.163975 -0.168975 -0.153975 -0.153975 -0.163975 -0.168975 -0.173975 -0.158975 -0.153975 -0.153975 -0.158975 -0.168975 -0.168975 -0.168975 -0.148975 -0.148975 -0.143975 -0.153975 -0.178975 -0.158975 -0.158975 -0.158975 -0.168975 -0.178975 -0.193975 -0.188975 -0.188975 -0.173975 -0.193975 -0.208975 -0.218975 -0.183975 -0.193975 -0.188975 -0.193975 -0.198975 -0.183975 -0.163975 -0.143975 -0.158975 -0.143975 -0.153975 -0.153975 -0.133975 -0.113975 -0.108975 -0.093975 -0.083975 -0.088975 -0.068975 -0.063975 -0.048975 -0.053975 -0.053975 -0.053975 -0.038975 -0.028975 -0.028975 -0.028975 -0.033975 -0.038975 -0.028975 -0.018975 -0.033975 -0.013975 -0.023975 -0.033975 -0.018975 -0.013975 -0.018975 -0.023975 -0.028975 -0.033975 -0.028975 -0.013975 -0.023975 -0.018975 -0.033975 -0.038975 -0.033975 -0.028975 -0.023975 -0.033975 -0.048975 -0.058975 -0.053975 -0.053975 -0.043975 -0.053975 -0.063975 -0.063975 -0.058975 -0.038975 -0.043975 -0.043975 -0.053975 -0.053975 -0.043975 -0.043975 -0.028975 -0.038975 -0.053975 -0.058975 -0.048975 -0.048975 -0.058975 -0.063975 -0.068975 -0.073975 -0.063975 -0.063975 -0.058975 -0.068975 -0.068975 -0.053975 -0.043975 -0.028975 -0.023975 -0.028975 -0.018975 -0.018975 -0.008975 0.011025 0.011025 0.016025 0.026025 0.026025 0.046025 0.061025 0.066025 0.061025 0.046025 0.031025 0.026025 0.031025 0.051025 0.046025 0.031025 0.031025 0.046025 0.071025 0.081025 0.056025 0.011025 -0.013975 -0.028975 -0.013975 -0.033975 -0.048975 -0.068975 -0.083975 -0.088975 -0.073975 -0.063975 -0.063975 -0.078975 -0.088975 -0.083975 -0.068975 -0.068975 -0.073975 -0.083975 -0.093975 -0.088975 -0.078975 -0.083975 -0.078975 -0.098975 -0.103975 -0.103975 -0.093975 -0.088975 -0.098975 -0.108975 -0.113975 -0.113975 -0.108975 -0.133975 -0.173975 -0.203975 -0.223975 -0.253975 -0.268975 -0.258975 -0.168975 -0.053975 0.081025 0.271025 0.496025 0.781025 1.031025 1.181025 1.216025 1.091025 0.806025 0.396025 0.021025 -0.193975 -0.273975 -0.278975 -0.248975 -0.208975 -0.163975 -0.138975 -0.143975 -0.123975 -0.123975 -0.113975 -0.113975 -0.118975 -0.113975 -0.123975 -0.113975 -0.118975 -0.113975 -0.123975 -0.143975 -0.133975 -0.118975 -0.113975 -0.123975 -0.138975 -0.143975 -0.143975 -0.138975 -0.118975 -0.123975 -0.123975 -0.138975 -0.128975 -0.113975 -0.108975 -0.123975 -0.128975 -0.128975 -0.113975 -0.103975 -0.103975 -0.108975 -0.118975 -0.133975 -0.123975 -0.118975 -0.113975 -0.113975 -0.123975 -0.133975 -0.123975 -0.108975 -0.113975 -0.123975 -0.133975 -0.133975 -0.133975 -0.123975 -0.118975 -0.118975 -0.133975 -0.133975 -0.118975 -0.118975 -0.118975 -0.123975 -0.123975 -0.128975 -0.123975 -0.113975 -0.123975 -0.123975 -0.123975 -0.138975 -0.133975 -0.118975 -0.113975 -0.123975 -0.118975 -0.123975 -0.123975 -0.118975 -0.118975 -0.118975 -0.123975 -0.118975 -0.113975 -0.113975 -0.103975 -0.113975 -0.103975 -0.113975 -0.108975 -0.098975 -0.088975 -0.098975 -0.108975 -0.108975 -0.103975 -0.083975 -0.083975 -0.088975 -0.088975 -0.078975 -0.058975 -0.053975 -0.038975 -0.033975 -0.048975 -0.028975 -0.023975 -0.008975 -0.003975 -0.013975 -0.013975 -0.018975 -0.013975 0.006025 0.006025 -0.003975 -0.003975 -0.013975 0.006025 0.011025 0.006025 0.016025 0.011025 -0.003975 0.016025 0.016025 0.021025 0.011025 0.001025 -0.003975 0.001025 0.001025 0.006025 0.001025 -0.013975 -0.018975 -0.008975 -0.008975 0.001025 -0.003975 -0.008975 -0.018975 -0.003975 0.001025 -0.008975 -0.013975 -0.013975 -0.028975 -0.018975 -0.018975 -0.013975 -0.028975 -0.038975 -0.038975 -0.023975 -0.018975 -0.018975 -0.028975 -0.023975 -0.033975 -0.033975 -0.028975 -0.023975 -0.033975 -0.033975 -0.033975 -0.028975 -0.008975 -0.003975 -0.013975 -0.013975 -0.008975 0.006025 0.026025 0.026025 0.021025 0.021025 0.021025 0.041025 0.061025 0.081025 0.076025 0.071025 0.071025 0.081025 0.076025 0.081025 0.066025 0.056025 0.051025 0.071025 0.071025 0.081025 0.076025 0.086025 0.096025 0.126025 0.111025 0.076025 0.046025 0.021025 0.006025 -0.008975 -0.018975 -0.033975 -0.033975 -0.053975 -0.068975 -0.058975 -0.038975 -0.033975 -0.043975 -0.043975 -0.053975 -0.058975 -0.063975 -0.068975 -0.063975 -0.078975 -0.078975 -0.063975 -0.048975 -0.053975 -0.053975 -0.058975 -0.063975 -0.058975 -0.053975 -0.043975 -0.048975 -0.058975 -0.048975 -0.048975 -0.053975 -0.093975 -0.143975 -0.178975 -0.193975 -0.213975 -0.243975 -0.233975 -0.173975 -0.073975 0.061025 0.226025 0.456025 0.721025 0.976025 1.121025 1.146025 1.011025 0.711025 0.316025 -0.013975 -0.173975 -0.218975 -0.178975 -0.123975 -0.078975 -0.088975 -0.108975 -0.118975 -0.108975 -0.093975 -0.078975 -0.088975 -0.093975 -0.088975 -0.098975 -0.098975 -0.098975 -0.093975 -0.113975 -0.108975 -0.103975 -0.098975 -0.088975 -0.098975 -0.088975 -0.113975 -0.108975 -0.123975 -0.118975 -0.108975 -0.113975 -0.118975 -0.113975 -0.103975 -0.083975 -0.088975 -0.108975 -0.118975 -0.108975 -0.088975 -0.093975 -0.108975 -0.118975 -0.123975 -0.113975 -0.103975 -0.103975 -0.103975 -0.113975 -0.128975 -0.118975 -0.098975 -0.088975 -0.088975 -0.093975 -0.108975 -0.113975 -0.103975 -0.113975 -0.108975 -0.118975 -0.123975 -0.118975 -0.108975 -0.103975 -0.113975 -0.108975 -0.123975 -0.108975 -0.093975 -0.093975 -0.088975 -0.103975 -0.108975 -0.103975 -0.098975 -0.098975 -0.108975 -0.118975 -0.128975 -0.123975 -0.123975 -0.118975 -0.128975 -0.123975 -0.143975 -0.143975 -0.138975 -0.133975 -0.128975 -0.133975 -0.148975 -0.138975 -0.133975 -0.123975 -0.118975 -0.103975 -0.098975 -0.078975 -0.073975 -0.048975 -0.043975 -0.043975 -0.043975 -0.028975 -0.013975 -0.003975 -0.008975 -0.008975 -0.008975 0.001025 0.006025 0.011025 -0.003975 0.001025 -0.003975 0.006025 0.016025 0.026025 0.036025 0.031025 0.021025 0.016025 0.016025 0.011025 -0.003975 0.011025 0.026025 0.036025 0.056025 0.046025 0.041025 0.026025 0.031025 0.041025 0.036025 0.041025 0.016025 -0.003975 -0.018975 0.001025 0.016025 0.026025 0.006025 0.006025 -0.003975 0.001025 0.011025 0.016025 0.011025 0.006025 -0.013975 -0.013975 -0.003975 0.006025 0.006025 -0.013975 -0.023975 -0.013975 0.011025 0.001025 -0.003975 -0.023975 -0.028975 -0.013975 -0.003975 -0.003975 -0.013975 -0.023975 -0.018975 -0.018975 0.001025 -0.003975 -0.003975 -0.018975 -0.018975 0.006025 0.031025 0.036025 0.041025 0.046025 0.046025 0.056025 0.071025 0.066025 0.066025 0.051025 0.036025 0.056025 0.076025 0.086025 0.101025 0.086025 0.071025 0.086025 0.091025 0.096025 0.081025 0.086025 0.081025 0.096025 0.101025 0.121025 0.111025 0.111025 0.101025 0.116025 0.141025 0.151025 0.116025 0.066025 0.036025 0.031025 0.046025 0.036025 0.026025 -0.003975 -0.033975 -0.028975 -0.018975 -0.013975 -0.003975 -0.023975 -0.018975 -0.018975 -0.008975 -0.003975 -0.003975 -0.018975 -0.023975 -0.028975 -0.028975 -0.013975 -0.023975 -0.038975 -0.048975 -0.038975 -0.038975 -0.028975 -0.028975 -0.028975 -0.033975 -0.063975 -0.083975 -0.103975 -0.118975 -0.143975 -0.193975 -0.208975 -0.178975 -0.093975 0.031025 0.166025 0.286025 0.461025 0.661025 0.886025 1.056025 1.161025 1.231025 1.306025 1.386025 1.451025 1.461025 1.421025 1.276025 1.021025 0.686025 0.336025 0.046025 -0.098975 -0.138975 -0.103975 -0.063975 -0.043975 -0.053975 -0.068975 -0.068975 -0.083975 -0.063975 -0.058975 -0.063975 -0.073975 -0.078975 -0.063975 -0.058975 -0.053975 -0.048975 -0.058975 -0.063975 -0.058975 -0.048975 -0.038975 -0.053975 -0.063975 -0.078975 -0.078975 -0.058975 -0.063975 -0.068975 -0.078975 -0.078975 -0.078975 -0.078975 -0.068975 -0.073975 -0.078975 -0.093975 -0.093975 -0.078975 -0.078975 -0.083975 -0.098975 -0.098975 -0.088975 -0.083975 -0.068975 -0.078975 -0.088975 -0.098975 -0.093975 -0.078975 -0.083975 -0.088975 -0.093975 -0.108975 -0.103975 -0.093975 -0.093975 -0.093975 -0.103975 -0.108975 -0.113975 -0.113975 -0.113975 -0.113975 -0.133975 -0.133975 -0.113975 -0.113975 -0.103975 -0.108975 -0.108975 -0.108975 -0.128975 -0.123975 -0.128975 -0.133975 -0.153975 -0.153975 -0.153975 -0.143975 -0.148975 -0.153975 -0.163975 -0.158975 -0.148975 -0.148975 -0.133975 -0.138975 -0.143975 -0.148975 -0.148975 -0.138975 -0.143975 -0.143975 -0.143975 -0.158975 -0.133975 -0.133975 -0.128975 -0.113975 -0.108975 -0.108975 -0.093975 -0.078975 -0.058975 -0.038975 -0.023975 -0.023975 -0.008975 0.011025 0.026025 0.021025 0.011025 0.006025 0.026025 0.041025 0.041025 0.036025 0.026025 0.021025 0.026025 0.036025 0.041025 0.041025 0.021025 0.016025 0.021025 0.046025 0.041025 0.041025 0.041025 0.031025 0.026025 0.036025 0.041025 0.041025 0.041025 0.026025 0.011025 0.031025 0.051025 0.041025 0.026025 0.016025 0.026025 0.031025 0.031025 0.021025 0.011025 0.016025 0.021025 0.021025 0.016025 0.006025 0.006025 0.001025 0.016025 0.021025 0.026025 0.006025 0.001025 -0.003975 0.006025 0.016025 0.011025 0.016025 0.006025 -0.008975 0.001025 0.006025 0.006025 0.001025 -0.003975 -0.008975 0.001025 0.011025 0.026025 0.026025 0.031025 0.026025 0.036025 0.051025 0.056025 0.066025 0.066025 0.066025 0.081025 0.096025 0.106025 0.106025 0.106025 0.111025 0.116025 0.121025 0.126025 0.121025 0.096025 0.081025 0.081025 0.096025 0.116025 0.111025 0.106025 0.091025 0.121025 0.151025 0.156025 0.136025 0.091025 0.061025 0.066025 0.056025 0.051025 0.036025 0.006025 -0.028975 -0.023975 -0.013975 -0.008975 0.001025 -0.008975 -0.023975 -0.023975 -0.018975 -0.018975 -0.023975 -0.023975 -0.033975 -0.028975 -0.033975 -0.018975 -0.023975 -0.028975 -0.033975 -0.023975 -0.013975 -0.008975 -0.013975 -0.018975 -0.038975 -0.023975 -0.018975 0.001025 -0.013975 -0.033975 -0.068975 -0.093975 -0.118975 -0.123975 -0.153975 -0.193975 -0.203975 -0.148975 -0.018975 0.131025 0.291025 0.456025 0.686025 0.941025 1.151025 1.256025 1.246025 1.071025 0.731025 0.321025 0.031025 -0.113975 -0.143975 -0.128975 -0.098975 -0.058975 -0.048975 -0.058975 -0.048975 -0.063975 -0.078975 -0.058975 -0.068975 -0.063975 -0.073975 -0.078975 -0.083975 -0.073975 -0.073975 -0.063975 -0.078975 -0.078975 -0.093975 -0.088975 -0.073975 -0.068975 -0.063975 -0.078975 -0.098975 -0.083975 -0.073975 -0.073975 -0.073975 -0.083975 -0.093975 -0.088975 -0.063975 -0.053975 -0.068975 -0.083975 -0.083975 -0.083975 -0.073975 -0.078975 -0.088975 -0.093975 -0.098975 -0.083975 -0.093975 -0.078975 -0.078975 -0.078975 -0.083975 -0.073975 -0.073975 -0.053975 -0.053975 -0.078975 -0.078975 -0.073975 -0.068975 -0.063975 -0.068975 -0.083975 -0.088975 -0.083975 -0.078975 -0.073975 -0.068975 -0.078975 -0.093975 -0.093975 -0.088975 -0.078975 -0.068975 -0.083975 -0.103975 -0.093975 -0.093975 -0.093975 -0.083975 -0.088975 -0.093975 -0.088975 -0.068975 -0.063975 -0.073975 -0.073975 -0.088975 -0.073975 -0.073975 -0.063975 -0.058975 -0.078975 -0.073975 -0.063975 -0.063975 -0.048975 -0.048975 -0.058975 -0.053975 -0.033975 -0.023975 -0.008975 0.001025 -0.003975 